Time [s],Position [mm],Power [W]
0.002,0,0.385073
2.064,0.5,0.385089
4.716,1.0,0.385264
7.385,1.5,0.385026
10.425,2.0,0.385264
12.992,2.5,0.385217
15.837,3.0,0.385264
18.520,3.5,0.385121
21.188,4.0,0.385407
23.793,4.5,0.385375
26.588,5.0,0.385487
29.546,5.5,0.38563
32.470,6.0,0.385693
35.112,6.5,0.385344
37.773,6.51,0.385693
40.346,6.52,0.385741
42.998,6.529999999999999,0.385773
45.666,6.539999999999999,0.385821
48.319,6.549999999999999,0.385995
50.917,6.559999999999999,0.385948
53.545,6.5699999999999985,0.386202
56.180,6.579999999999998,0.38617
58.736,6.589999999999998,0.386266
61.379,6.599999999999998,0.38625
63.937,6.609999999999998,0.386154
66.580,6.619999999999997,0.386345
69.311,6.629999999999997,0.386266
71.965,6.639999999999997,0.386488
74.521,6.649999999999997,0.386154
77.189,6.659999999999997,0.386313
80.008,6.669999999999996,0.386266
82.638,6.679999999999996,0.386297
85.195,6.689999999999996,0.386329
87.847,6.699999999999996,0.386345
90.515,6.7099999999999955,0.386377
93.119,6.719999999999995,0.386361
95.851,6.729999999999995,0.386504
98.439,6.739999999999995,0.386663
101.076,6.749999999999995,0.386441
103.814,6.7599999999999945,0.386186
106.443,6.769999999999994,0.386425
109.113,6.779999999999994,0.386282
111.756,6.789999999999994,0.386345
114.403,6.799999999999994,0.386409
117.081,6.809999999999993,0.386615
119.976,6.819999999999993,0.38679
122.835,6.829999999999993,0.386345
125.504,6.839999999999993,0.386615
128.253,6.8499999999999925,0.386361
130.824,6.859999999999992,0.386743
133.653,6.869999999999992,0.386822
136.225,6.879999999999992,0.386631
138.971,6.889999999999992,0.386743
141.737,6.8999999999999915,0.386552
144.405,6.909999999999991,0.386599
146.962,6.919999999999991,0.386758
149.613,6.929999999999991,0.386901
152.265,6.939999999999991,0.386743
154.821,6.94999999999999,0.386758
157.631,6.95999999999999,0.386647
160.174,6.96999999999999,0.386854
162.733,6.97999999999999,0.386743
165.383,6.9899999999999896,0.387029
168.067,6.999999999999989,0.38706
170.703,7.009999999999989,0.386917
173.441,7.019999999999989,0.387156
176.210,7.029999999999989,0.387076
178.819,7.0399999999999885,0.387045
181.376,7.049999999999988,0.387108
184.251,7.059999999999988,0.387267
186.856,7.069999999999988,0.38741
189.508,7.079999999999988,0.387458
192.063,7.089999999999987,0.38749
194.685,7.099999999999987,0.387569
197.335,7.109999999999987,0.387553
199.989,7.119999999999987,0.387569
202.845,7.129999999999987,0.387951
205.388,7.139999999999986,0.387919
208.008,7.149999999999986,0.387887
210.629,7.159999999999986,0.387871
213.233,7.169999999999986,0.388237
215.902,7.1799999999999855,0.387887
218.507,7.189999999999985,0.388014
221.111,7.199999999999985,0.387633
223.683,7.209999999999985,0.388046
226.319,7.219999999999985,0.387998
229.188,7.229999999999984,0.38811
231.893,7.239999999999984,0.388125
234.548,7.249999999999984,0.388046
237.135,7.259999999999984,0.388062
239.807,7.269999999999984,0.387521
242.409,7.279999999999983,0.387855
244.965,7.289999999999983,0.387601
247.585,7.299999999999983,0.387903
250.265,7.309999999999983,0.388316
253.002,7.3199999999999825,0.387935
255.558,7.329999999999982,0.38838
258.130,7.339999999999982,0.388348
260.799,7.349999999999982,0.388316
263.355,7.359999999999982,0.388269
266.103,7.3699999999999815,0.388332
269.010,7.379999999999981,0.388523
271.567,7.389999999999981,0.388284
274.283,7.399999999999981,0.388507
277.019,7.409999999999981,0.388269
279.571,7.41999999999998,0.388666
282.334,7.42999999999998,0.388412
285.019,7.43999999999998,0.388364
287.591,7.44999999999998,0.388491
290.296,7.4599999999999795,0.388459
293.086,7.469999999999979,0.388586
295.835,7.479999999999979,0.388618
298.983,7.489999999999979,0.388698
301.588,7.499999999999979,0.388761
304.144,7.5099999999999785,0.388666
306.700,7.519999999999978,0.388523
309.497,7.529999999999978,0.388714
312.052,7.539999999999978,0.38838
314.608,7.549999999999978,0.38892
317.230,7.559999999999977,0.38892
319.785,7.569999999999977,0.38873
322.502,7.579999999999977,0.38873
325.181,7.589999999999977,0.388777
327.725,7.5999999999999766,0.389143
330.300,7.609999999999976,0.389159
332.870,7.619999999999976,0.38927
335.426,7.629999999999976,0.389334
337.982,7.639999999999976,0.389032
340.586,7.6499999999999755,0.389206
343.143,7.659999999999975,0.388809
346.101,7.669999999999975,0.389206
349.326,7.679999999999975,0.389206
352.029,7.689999999999975,0.389636
354.583,7.699999999999974,0.389365
357.140,7.709999999999974,0.389667
359.696,7.719999999999974,0.389461
362.268,7.729999999999974,0.38919
365.000,7.739999999999974,0.389318
367.555,7.749999999999973,0.389206
370.113,7.759999999999973,0.389175
372.668,7.769999999999973,0.389588
375.225,7.779999999999973,0.389747
377.814,7.7899999999999725,0.389286
380.371,7.799999999999972,0.389111
382.994,7.809999999999972,0.389318
385.643,7.819999999999972,0.389381
388.215,7.829999999999972,0.389413
390.771,7.839999999999971,0.38954
393.328,7.849999999999971,0.389524
395.883,7.859999999999971,0.389588
398.440,7.869999999999971,0.389445
401.301,7.879999999999971,0.389397
403.856,7.88999999999997,0.389286
406.495,7.89999999999997,0.38954
409.177,7.90999999999997,0.389349
411.861,7.91999999999997,0.389175
414.640,7.9299999999999695,0.389206
417.310,7.939999999999969,0.388936
419.866,7.949999999999969,0.389143
422.567,7.959999999999969,0.389111
425.231,7.969999999999969,0.389206
427.902,7.9799999999999685,0.389095
430.618,7.989999999999968,0.388984
433.361,7.999999999999968,0.389016
435.971,8.009999999999968,0.388825
438.687,8.019999999999968,0.388586
441.387,8.029999999999967,0.388888
444.055,8.039999999999967,0.38892
446.708,8.049999999999967,0.389318
449.280,8.059999999999967,0.389047
451.932,8.069999999999967,0.388857
455.204,8.079999999999966,0.389063
458.067,8.089999999999966,0.388952
460.624,8.099999999999966,0.389016
463.429,8.109999999999966,0.389
466.200,8.119999999999965,0.388809
468.757,8.129999999999965,0.388888
471.425,8.139999999999965,0.388332
473.980,8.149999999999965,0.38865
476.715,8.159999999999965,0.388459
479.286,8.169999999999964,0.388475
482.098,8.179999999999964,0.388443
484.655,8.189999999999964,0.388157
487.212,8.199999999999964,0.388857
489.851,8.209999999999964,0.388459
492.402,8.219999999999963,0.388459
494.958,8.229999999999963,0.388475
497.515,8.239999999999963,0.388284
500.151,8.249999999999963,0.388316
502.707,8.259999999999962,0.388269
505.263,8.269999999999962,0.388284
507.818,8.279999999999962,0.388269
510.375,8.289999999999962,0.388125
513.011,8.299999999999962,0.388141
515.663,8.309999999999961,0.388284
518.219,8.319999999999961,0.388062
520.777,8.329999999999961,0.38811
523.365,8.33999999999996,0.388237
526.144,8.34999999999996,0.388221
528.845,8.35999999999996,0.388189
531.512,8.36999999999996,0.387871
534.069,8.37999999999996,0.387919
537.180,8.38999999999996,0.388157
539.933,8.39999999999996,0.388062
542.591,8.40999999999996,0.387855
545.142,8.419999999999959,0.387998
547.922,8.429999999999959,0.38741
550.478,8.439999999999959,0.38803
553.130,8.449999999999958,0.387966
555.910,8.459999999999958,0.387839
558.497,8.469999999999958,0.38803
561.054,8.479999999999958,0.387966
563.691,8.489999999999958,0.388062
566.447,8.499999999999957,0.387839
569.090,8.509999999999957,0.387792
571.775,8.519999999999957,0.388253
574.518,8.529999999999957,0.38776
577.063,8.539999999999957,0.387394
579.700,8.549999999999956,0.387537
582.257,8.559999999999956,0.387553
585.005,8.569999999999956,0.387633
587.673,8.579999999999956,0.387521
590.310,8.589999999999955,0.387633
592.930,8.599999999999955,0.387569
595.502,8.609999999999955,0.387506
598.155,8.619999999999955,0.387617
600.807,8.629999999999955,0.387633
603.679,8.639999999999954,0.387537
606.529,8.649999999999954,0.387617
609.253,8.659999999999954,0.387823
611.817,8.669999999999954,0.387982
614.500,8.679999999999954,0.387633
617.279,8.689999999999953,0.387935
619.836,8.699999999999953,0.387935
622.520,8.709999999999953,0.387839
625.172,8.719999999999953,0.387823
627.809,8.729999999999952,0.387935
630.461,8.739999999999952,0.387442
633.033,8.749999999999952,0.387521
635.606,8.759999999999952,0.387665
638.241,8.769999999999952,0.387458
640.798,8.779999999999951,0.387331
643.520,8.789999999999951,0.387537
646.182,8.799999999999951,0.387426
648.834,8.80999999999995,0.387521
651.470,8.81999999999995,0.387537
654.042,8.82999999999995,0.387665
656.679,8.83999999999995,0.38741
659.347,8.84999999999995,0.38741
661.935,8.85999999999995,0.387649
664.587,8.86999999999995,0.387744
667.331,8.87999999999995,0.387092
669.876,8.889999999999949,0.387362
672.544,8.899999999999949,0.387696
675.133,8.909999999999949,0.387585
677.817,8.919999999999948,0.387712
680.469,8.929999999999948,0.387728
683.121,8.939999999999948,0.387347
685.773,8.949999999999948,0.38768
688.330,8.959999999999948,0.38741
690.902,8.969999999999947,0.387458
693.809,8.979999999999947,0.387426
696.709,8.989999999999947,0.387092
699.355,8.999999999999947,0.387347
702.006,9.009999999999946,0.387569
704.641,9.019999999999946,0.387458
707.301,9.029999999999946,0.387331
709.980,9.039999999999946,0.387506
712.551,9.049999999999946,0.38749
715.237,9.059999999999945,0.387665
717.948,9.069999999999945,0.387617
720.906,9.079999999999945,0.387601
723.511,9.089999999999945,0.38749
726.179,9.099999999999945,0.38749
728.834,9.109999999999944,0.387474
731.435,9.119999999999944,0.38749
733.991,9.129999999999944,0.38749
736.644,9.139999999999944,0.387601
739.232,9.149999999999944,0.387569
742.218,9.159999999999943,0.387394
744.776,9.169999999999943,0.387331
747.450,9.179999999999943,0.387347
750.016,9.189999999999943,0.387553
752.885,9.199999999999942,0.387283
755.544,9.209999999999942,0.387537
758.196,9.219999999999942,0.387712
760.753,9.229999999999942,0.387362
763.421,9.239999999999942,0.387537
766.109,9.249999999999941,0.387521
768.693,9.259999999999941,0.387219
771.329,9.269999999999941,0.387458
773.982,9.27999999999994,0.387362
776.652,9.28999999999994,0.38768
779.206,9.29999999999994,0.387521
781.897,9.30999999999994,0.387315
784.446,9.31999999999994,0.387362
787.036,9.32999999999994,0.387315
789.671,9.33999999999994,0.387013
792.228,9.34999999999994,0.387108
794.799,9.359999999999939,0.387188
797.356,9.369999999999939,0.38706
800.296,9.379999999999939,0.387045
802.939,9.389999999999938,0.387347
805.496,9.399999999999938,0.387331
808.141,9.409999999999938,0.387108
810.714,9.419999999999938,0.387045
813.397,9.429999999999938,0.387045
816.001,9.439999999999937,0.386965
818.683,9.449999999999937,0.386886
821.322,9.459999999999937,0.386949
823.974,9.469999999999937,0.386727
826.531,9.479999999999936,0.386917
829.342,9.489999999999936,0.386774
831.899,9.499999999999936,0.386965
834.568,9.509999999999936,0.387013
837.251,9.519999999999936,0.387108
839.823,9.529999999999935,0.387076
842.443,9.539999999999935,0.386758
845.127,9.549999999999935,0.386838
847.684,9.559999999999935,0.386631
850.384,9.569999999999935,0.386743
852.973,9.579999999999934,0.386631
855.753,9.589999999999934,0.386679
858.341,9.599999999999934,0.386552
860.977,9.609999999999934,0.386631
863.917,9.619999999999933,0.386488
866.474,9.629999999999933,0.386552
869.142,9.639999999999933,0.386599
871.698,9.649999999999933,0.386266
874.336,9.659999999999933,0.386568
877.453,9.669999999999932,0.386313
880.071,9.679999999999932,0.386727
882.743,9.689999999999932,0.386441
885.410,9.699999999999932,0.386615
887.963,9.709999999999932,0.386743
890.703,9.719999999999931,0.386409
893.491,9.729999999999931,0.38652
896.287,9.739999999999931,0.386504
898.924,9.74999999999993,0.386488
901.560,9.75999999999993,0.386456
904.164,9.76999999999993,0.386425
906.832,9.77999999999993,0.386472
909.517,9.78999999999993,0.386663
912.169,9.79999999999993,0.386615
914.821,9.80999999999993,0.386536
917.711,9.81999999999993,0.386504
920.286,9.829999999999929,0.386409
923.050,9.839999999999929,0.386536
925.606,9.849999999999929,0.386552
928.275,9.859999999999928,0.386313
931.030,9.869999999999928,0.386472
933.610,9.879999999999928,0.386329
936.182,9.889999999999928,0.386027
938.738,9.899999999999928,0.386393
941.294,9.909999999999927,0.386361
944.291,9.919999999999927,0.386345
947.003,9.929999999999927,0.385948
949.755,9.939999999999927,0.386313
952.414,9.949999999999926,0.386361
954.970,9.959999999999926,0.386758
957.607,9.969999999999926,0.386536
960.260,9.979999999999926,0.386282
963.166,9.989999999999926,0.386615
965.834,9.999999999999925,0.386361
968.392,10.009999999999925,0.386266
970.965,10.509999999999925,0.386043
973.599,11.009999999999925,0.385503
976.284,11.509999999999925,0.385121
979.125,12.009999999999925,0.384962
981.892,12.509999999999925,0.384915
985.279,13.009999999999925,0.385391
987.883,13.509999999999925,0.384994
990.553,14.009999999999925,0.385137
993.236,14.509999999999925,0.385296
995.792,15.009999999999925,0.385137
998.445,15.509999999999925,0.38493
1001.017,16.009999999999927,0.38493
1003.573,16.509999999999927,0.385026
1006.210,17.009999999999927,0.384994
1009.095,17.509999999999927,0.384835
1011.854,18.009999999999927,0.385201
1014.488,18.509999999999927,0.385868
1017.234,19.009999999999927,0.385582
1020.142,19.509999999999927,0.385248
1022.801,20.009999999999927,0.385073
1025.463,20.509999999999927,0.385391
1028.018,21.009999999999927,0.385407
1030.591,21.509999999999927,0.385201
1033.179,22.009999999999927,0.385646
1035.738,22.509999999999927,0.385312
1038.499,23.009999999999927,0.385423
1041.088,23.509999999999927,0.385264
1043.884,24.009999999999927,0.385328
1046.441,24.509999999999927,0.385534
